Time [s], X-Pos [m], Y-Pos [m], phi [rad], dX-Pos [m/s], dY-Pos [m/s], dphi [rad/s], Path Vel [m/s]
0,0,0,0,0,0,0,0
0.05,7.5747e-05,0,0,0.00454482,0,0,0.00454482
0.1,0.000605976,0,0,0.0181793,0,0,0.0181793
0.15,0.00204517,0,0,0.0409034,0,0,0.0409034
0.2,0.00484781,0,0,0.0727171,0,0,0.0727171
0.25,0.00946837,0,0,0.11362,0,0,0.11362
0.3,0.0163613,0,0,0.163613,0,0,0.163613
0.35,0.0259812,0,0,0.222696,0,0,0.222696
0.4,0.0387524,0,0,0.287776,0,0,0.287776
0.45,0.0546183,0,0,0.345345,0,0,0.345345
0.5,0.0731354,0,0,0.393824,0,0,0.393824
0.55,0.0938491,0,0,0.433213,0,0,0.433213
0.6,0.116305,0,0,0.463513,0,0,0.463513
0.65,0.140049,0,0,0.484723,0,0,0.484723
0.7,0.164626,0,0,0.496843,0,0,0.496843
0.75,0.189582,0,0,0.5,0,0,0.5
0.8,0.214582,0,0,0.5,0,0,0.5
0.85,0.239582,0,0,0.5,0,0,0.5
0.9,0.264582,0,0,0.5,0,0,0.5
0.95,0.289582,0,0,0.5,0,0,0.5
1,0.314582,0,0,0.5,0,0,0.5
1.05,0.339582,0,0,0.5,0,0,0.5
1.1,0.364582,0,0,0.5,0,0,0.5
1.15,0.389582,0,0,0.5,0,0,0.5
1.2,0.414582,0,0,0.5,0,0,0.5
1.25,0.439582,0,0,0.5,0,0,0.5
1.3,0.464582,0,0,0.5,0,0,0.5
1.35,0.489582,0,0,0.5,0,0,0.5
1.4,0.514582,0,0,0.5,0,0,0.5
1.45,0.539582,0,0,0.5,0,0,0.5
1.5,0.564582,0,0,0.5,0,0,0.5
1.55,0.589582,0,0,0.5,0,0,0.5
1.6,0.614582,0,0,0.5,0,0,0.5
1.65,0.639582,0,0,0.5,0,0,0.5
1.7,0.664582,0,0,0.5,0,0,0.5
1.75,0.689582,0,0,0.5,0,0,0.5
1.8,0.714582,0,0,0.5,0,0,0.5
1.85,0.739582,0,0,0.5,0,0,0.5
1.9,0.764582,0,0,0.5,0,0,0.5
1.95,0.789582,0,0,0.5,0,0,0.5
2,0.814582,0,0,0.5,0,0,0.5
2.05,0.839582,0,0,0.5,0,0,0.5
2.1,0.864582,0,0,0.5,0,0,0.5
2.15,0.889582,0,0,0.5,0,0,0.5
2.2,0.914582,0,0,0.5,0,0,0.5
2.25,0.939582,0,0,0.5,0,0,0.5
2.3,0.964582,0,0,0.5,0,0,0.5
2.35,0.989582,0,0,0.5,0,0,0.5
2.4,1.01458,0,0,0.5,0,0,0.5
2.45,1.03958,0,0,0.5,0,0,0.5
2.5,1.06458,0,0,0.5,0,0,0.5
2.55,1.08958,0,0,0.5,0,0,0.5
2.6,1.11458,0,0,0.5,0,0,0.5
2.65,1.13958,0,0,0.5,0,0,0.5
2.7,1.16458,0,0,0.5,0,0,0.5
2.75,1.18958,0,0,0.5,0,0,0.5
2.8,1.21458,0,0,0.5,0,0,0.5
2.85,1.23958,0,0,0.5,0,0,0.5
2.9,1.26458,0,0,0.5,0,0,0.5
2.95,1.28958,0,0,0.5,0,0,0.5
3,1.31458,0,0,0.5,0,0,0.5
3.05,1.33958,0,0,0.5,0,0,0.5
3.1,1.36458,0,0,0.5,0,0,0.5
3.15,1.38958,0,0,0.5,0,0,0.5
3.2,1.41458,0,0,0.5,0,0,0.5
3.25,1.43958,0,0,0.5,0,0,0.5
3.3,1.46458,0,0,0.5,0,0,0.5
3.35,1.48958,0,0,0.5,0,0,0.5
3.4,1.51458,0,0,0.5,0,0,0.5
3.45,1.53958,0,0,0.5,0,0,0.5
3.5,1.56458,0,0,0.5,0,0,0.5
3.55,1.58958,0,0,0.5,0,0,0.5
3.6,1.61458,0,0,0.5,0,0,0.5
3.65,1.63958,0,0,0.5,0,0,0.5
3.7,1.66458,0,0,0.5,0,0,0.5
3.75,1.68958,0,0,0.5,0,0,0.5
3.8,1.71458,0,0,0.5,0,0,0.5
3.85,1.73958,0,0,0.5,0,0,0.5
3.9,1.76458,0,0,0.5,0,0,0.5
3.95,1.78958,0,0,0.5,0,0,0.5
4,1.81458,0,0,0.5,0,0,0.5
4.05,1.83958,0,0,0.5,0,0,0.5
4.1,1.86458,0,0,0.5,0,0,0.5
4.15,1.88958,0,0,0.5,0,0,0.5
4.2,1.91458,0,0,0.5,0,0,0.5
4.25,1.93958,0,0,0.5,0,0,0.5
4.3,1.96458,0,0,0.5,0,0,0.5
4.35,1.98958,0,0,0.5,0,0,0.5
4.4,2.01458,0,0,0.5,0,0,0.5
4.45,2.03958,0,0,0.5,0,0,0.5
4.5,2.06458,0,0,0.5,0,0,0.5
4.55,2.08958,0,0,0.5,0,0,0.5
4.6,2.11458,0,0,0.5,0,0,0.5
4.65,2.13958,0,0,0.5,0,0,0.5
4.7,2.16458,0,0,0.5,0,0,0.5
4.75,2.18958,0,0,0.5,0,0,0.5
4.8,2.21458,0,0,0.5,0,0,0.5
4.85,2.23958,0,0,0.5,0,0,0.5
4.9,2.26458,0,0,0.5,0,0,0.5
4.95,2.28958,0,0,0.5,0,0,0.5
5,2.31458,0,0,0.5,0,0,0.5
5.05,2.33958,0,0,0.5,0,0,0.5
5.1,2.36458,0,0,0.5,0,0,0.5
5.15,2.38958,0,0,0.5,0,0,0.5
5.2,2.41458,0,0,0.5,0,0,0.5
5.25,2.43958,0,0,0.5,0,0,0.5
5.3,2.46458,0,0,0.5,0,0,0.5
5.35,2.48958,0,0,0.5,0,0,0.5
5.4,2.51458,0,0,0.5,0,0,0.5
5.45,2.53958,0,0,0.5,0,0,0.5
5.5,2.56458,0,0,0.5,0,0,0.5
5.55,2.58958,0,0,0.5,0,0,0.5
5.6,2.61458,0,0,0.5,0,0,0.5
5.65,2.63958,0,0,0.5,0,0,0.5
5.7,2.66458,0,0,0.5,0,0,0.5
5.75,2.68958,0,0,0.5,0,0,0.5
5.8,2.71458,0,0,0.5,0,0,0.5
5.85,2.73958,0,0,0.5,0,0,0.5
5.9,2.76458,0,0,0.5,0,0,0.5
5.95,2.78958,0,0,0.5,0,0,0.5
6,2.81458,0,0,0.5,0,0,0.5
6.05,2.83954,0,0,0.496991,0,0,0.496991
6.1,2.86413,0,0,0.485049,0,0,0.485049
6.15,2.88789,0,0,0.464018,0,0,0.464018
6.2,2.91038,0,0,0.433962,0,0,0.433962
6.25,2.93133,0,0,0.40537,0,0,0.40537
6.3,2.95107,0,0,0.385867,0,0,0.385867
6.35,2.97006,0,0,0.375454,0,0,0.375454
6.4,2.98877,0,0,0.374131,0,0,0.374131
6.45,3.00082,-2.33385e-06,-0.000374856,0.37356,-0.000140031,-0.0149942,0.37356
6.5,3.0195,-1.86708e-05,-0.00149942,0.373559,-0.000560125,-0.0299885,0.37356
6.55,3.03818,-6.3014e-05,-0.00337371,0.373558,-0.00126028,-0.0449827,0.37356
6.6,3.05685,-0.000149366,-0.0059977,0.373553,-0.00224049,-0.059977,0.37356
6.65,3.07553,-0.00029173,-0.00937141,0.373543,-0.00350073,-0.0749712,0.37356
6.7,3.09421,-0.000504106,-0.0134948,0.373526,-0.00504097,-0.0899655,0.37356
6.75,3.11288,-0.000800493,-0.018368,0.373497,-0.00686114,-0.10496,0.37356
6.8,3.13156,-0.00119488,-0.0239908,0.373452,-0.00896114,-0.119954,0.37356
6.85,3.15023,-0.00170127,-0.0303634,0.373388,-0.0113408,-0.134948,0.37356
6.9,3.1689,-0.00233362,-0.0374856,0.373297,-0.0139998,-0.149942,0.37356
6.95,3.18756,-0.0031059,-0.0453576,0.373176,-0.016938,-0.164937,0.37356
7,3.20621,-0.00403206,-0.0539793,0.373016,-0.0201547,-0.179931,0.37356
7.05,3.22486,-0.00512601,-0.0633507,0.37281,-0.0236495,-0.194925,0.37356
7.1,3.24349,-0.00640163,-0.0734718,0.372552,-0.0274214,-0.209919,0.37356
7.15,3.26211,-0.00787275,-0.0843426,0.372232,-0.0314697,-0.224914,0.37356
7.2,3.28072,-0.00955318,-0.0959632,0.371841,-0.035793,-0.239908,0.37356
7.25,3.2993,-0.0114566,-0.108333,0.37137,-0.0403899,-0.254902,0.37356
7.3,3.31785,-0.0135967,-0.121453,0.370808,-0.0452587,-0.269896,0.37356
7.35,3.33638,-0.015987,-0.135323,0.370145,-0.0503971,-0.284891,0.37356
7.4,3.35486,-0.0186409,-0.149942,0.369368,-0.0558028,-0.299885,0.37356
7.45,3.37331,-0.0215717,-0.165312,0.368467,-0.0614729,-0.314879,0.37356
7.5,3.39171,-0.0247925,-0.18143,0.367428,-0.0674039,-0.329873,0.37356
7.55,3.41005,-0.0283163,-0.198299,0.366239,-0.073592,-0.344868,0.37356
7.6,3.42833,-0.0321559,-0.215917,0.364886,-0.0800327,-0.359862,0.37356
7.65,3.44654,-0.0363237,-0.234285,0.363354,-0.0867211,-0.374856,0.37356
7.7,3.46466,-0.0408321,-0.253403,0.36163,-0.0936513,-0.38985,0.37356
7.75,3.4827,-0.0456928,-0.27327,0.359698,-0.100817,-0.404845,0.37356
7.8,3.50063,-0.0509176,-0.293887,0.357543,-0.108211,-0.419839,0.37356
7.85,3.51845,-0.0565176,-0.315254,0.35515,-0.115825,-0.434833,0.37356
7.9,3.53614,-0.0625036,-0.337371,0.352502,-0.123651,-0.449827,0.37356
7.95,3.55369,-0.068886,-0.360237,0.349582,-0.131678,-0.464822,0.37356
8,3.57109,-0.0756746,-0.383853,0.346375,-0.139897,-0.479816,0.37356
8.05,3.58832,-0.0828787,-0.408218,0.342864,-0.148294,-0.49481,0.37356
8.1,3.60537,-0.0905068,-0.433334,0.339032,-0.156857,-0.509804,0.37356
8.15,3.62222,-0.0985669,-0.459199,0.334862,-0.165573,-0.524799,0.37356
8.2,3.63885,-0.107066,-0.485814,0.330337,-0.174426,-0.539793,0.37356
8.25,3.65525,-0.116011,-0.513178,0.325441,-0.183399,-0.554787,0.37356
8.3,3.67139,-0.125408,-0.541292,0.320157,-0.192474,-0.569781,0.37356
8.35,3.68726,-0.13526,-0.570156,0.314469,-0.201634,-0.584776,0.37356
8.4,3.70283,-0.145572,-0.59977,0.308361,-0.210857,-0.59977,0.37356
8.45,3.71809,-0.156347,-0.630133,0.301817,-0.220121,-0.614764,0.37356
8.5,3.73301,-0.167585,-0.661246,0.294824,-0.229403,-0.629758,0.37356
8.55,3.74756,-0.179287,-0.693109,0.287366,-0.238679,-0.644753,0.37356
8.6,3.76173,-0.191452,-0.725722,0.27943,-0.247922,-0.659747,0.37356
8.65,3.7755,-0.204078,-0.759084,0.271005,-0.257105,-0.674741,0.37356
8.7,3.78883,-0.217162,-0.793157,0.262089,-0.266188,-0.682938,0.37356
8.75,3.80171,-0.230695,-0.826929,0.252952,-0.274886,-0.667944,0.37356
8.8,3.81413,-0.244651,-0.859952,0.243738,-0.283088,-0.65295,0.37356
8.85,3.82608,-0.259004,-0.892224,0.234477,-0.290805,-0.637955,0.37356
8.9,3.83757,-0.273731,-0.923747,0.225195,-0.298051,-0.622961,0.37356
8.95,3.8486,-0.288809,-0.95452,0.215918,-0.304838,-0.607967,0.37356
9,3.85917,-0.304215,-0.984544,0.206669,-0.311183,-0.592973,0.37356
9.05,3.86927,-0.319927,-1.01382,0.197473,-0.317099,-0.577978,0.37356
9.1,3.87891,-0.335925,-1.04234,0.188349,-0.322602,-0.562984,0.37356
9.15,3.8881,-0.352188,-1.07012,0.179317,-0.327708,-0.54799,0.37356
9.2,3.89684,-0.368696,-1.09714,0.170397,-0.332433,-0.532996,0.37356
9.25,3.90514,-0.385431,-1.12342,0.161604,-0.336795,-0.518001,0.37356
9.3,3.913,-0.402375,-1.14894,0.152956,-0.34081,-0.503007,0.37356
9.35,3.92044,-0.419512,-1.17372,0.144466,-0.344495,-0.488013,0.37356
9.4,3.92745,-0.436825,-1.19774,0.136148,-0.347866,-0.473019,0.37356
9.45,3.93405,-0.454299,-1.22102,0.128015,-0.35094,-0.458024,0.37356
9.5,3.94025,-0.471919,-1.24354,0.120078,-0.353735,-0.44303,0.37356
9.55,3.94606,-0.489672,-1.26532,0.112347,-0.356266,-0.428036,0.37356
9.6,3.95149,-0.507546,-1.28635,0.104831,-0.358549,-0.413042,0.37356
9.65,3.95654,-0.525527,-1.30663,0.0975399,-0.360601,-0.398047,0.37356
9.7,3.96124,-0.543606,-1.32615,0.0904801,-0.362437,-0.383053,0.37356
9.75,3.96559,-0.561771,-1.34493,0.0836588,-0.364072,-0.368059,0.37356
9.8,3.96961,-0.580013,-1.36296,0.077082,-0.365521,-0.353065,0.37356
9.85,3.9733,-0.598323,-1.38024,0.0707552,-0.366798,-0.33807,0.37356
9.9,3.97668,-0.616693,-1.39677,0.0646831,-0.367917,-0.323076,0.37356
9.95,3.97977,-0.635115,-1.41254,0.05887,-0.368892,-0.308082,0.37356
10,3.98257,-0.653582,-1.42757,0.0533194,-0.369735,-0.293088,0.37356
10.05,3.9851,-0.672088,-1.44185,0.0480345,-0.370459,-0.278093,0.37356
10.1,3.98737,-0.690628,-1.45538,0.043018,-0.371075,-0.263099,0.37356
10.15,3.9894,-0.709196,-1.46816,0.0382722,-0.371594,-0.248105,0.37356
10.2,3.9912,-0.727788,-1.48019,0.0337991,-0.372028,-0.233111,0.37356
10.25,3.99278,-0.746399,-1.49147,0.0296004,-0.372385,-0.218116,0.37356
10.3,3.99416,-0.765026,-1.50201,0.0256772,-0.372676,-0.203122,0.37356
10.35,3.99535,-0.783666,-1.51179,0.0220308,-0.37291,-0.188128,0.37356
10.4,3.99636,-0.802317,-1.52082,0.018662,-0.373093,-0.173134,0.37356
10.45,3.99722,-0.820976,-1.5291,0.0155715,-0.373235,-0.158139,0.37356
10.5,3.99792,-0.839641,-1.53663,0.0127598,-0.373342,-0.143145,0.37356
10.55,3.99849,-0.85831,-1.54341,0.0102274,-0.37342,-0.128151,0.37356
10.6,3.99894,-0.876983,-1.54945,0.0079745,-0.373475,-0.113157,0.37356
10.65,3.99929,-0.895658,-1.55473,0.00600134,-0.373512,-0.0981625,0.37356
10.7,3.99954,-0.914334,-1.55926,0.00430805,-0.373535,-0.0831682,0.37356
10.75,3.99972,-0.933011,-1.56305,0.00289473,-0.373549,-0.068174,0.37356
10.8,3.99983,-0.951689,-1.56608,0.00176143,-0.373556,-0.0531798,0.37356
10.85,3.9999,-0.970367,-1.56837,0.00090818,-0.373559,-0.0381855,0.37356
10.9,3.99992,-0.989045,-1.5699,0.000334984,-0.37356,-0.0231913,0.37356
10.95,3.99993,-1.00772,-1.57068,4.18491e-05,-0.37356,-0.00819701,0.37356
11,3.99993,-1.0264,-1.57072,2.87767e-05,-0.37356,0.00679724,0.37356
11.05,4,-1.03661,-1.5708,1.33445e-14,-0.378105,0,0.378105
11.1,4,-1.05582,-1.5708,1.38257e-14,-0.391739,0,0.391739
11.15,4,-1.07594,-1.5708,1.46277e-14,-0.414463,0,0.414463
11.2,4,-1.09741,-1.5708,1.57271e-14,-0.445613,0,0.445613
11.25,4,-1.1204,-1.5708,1.66764e-14,-0.472512,0,0.472512
11.3,4,-1.14451,-1.5708,1.7305e-14,-0.490321,0,0.490321
11.35,4,-1.16929,-1.5708,1.76127e-14,-0.499041,0,0.499041
11.4,4,-1.19428,-1.5708,1.76466e-14,-0.5,0,0.5
11.45,4,-1.21928,-1.5708,1.76466e-14,-0.5,0,0.5
11.5,4,-1.24428,-1.5708,1.76466e-14,-0.5,0,0.5
11.55,4,-1.26928,-1.5708,1.76466e-14,-0.5,0,0.5
11.6,4,-1.29428,-1.5708,1.76466e-14,-0.5,0,0.5
11.65,4,-1.31928,-1.5708,1.76466e-14,-0.5,0,0.5
11.7,4,-1.34428,-1.5708,1.76466e-14,-0.5,0,0.5
11.75,4,-1.36928,-1.5708,1.76466e-14,-0.5,0,0.5
11.8,4,-1.39428,-1.5708,1.76466e-14,-0.5,0,0.5
11.85,4,-1.41928,-1.5708,1.76466e-14,-0.5,0,0.5
11.9,4,-1.44428,-1.5708,1.76466e-14,-0.5,0,0.5
11.95,4,-1.46928,-1.5708,1.76466e-14,-0.5,0,0.5
12,4,-1.49428,-1.5708,1.76466e-14,-0.5,0,0.5
12.05,4,-1.51928,-1.5708,1.76466e-14,-0.5,0,0.5
12.1,4,-1.54428,-1.5708,1.76466e-14,-0.5,0,0.5
12.15,4,-1.56928,-1.5708,1.76466e-14,-0.5,0,0.5
12.2,4,-1.59428,-1.5708,1.76466e-14,-0.5,0,0.5
12.25,4,-1.61928,-1.5708,1.76466e-14,-0.5,0,0.5
12.3,4,-1.64428,-1.5708,1.76466e-14,-0.5,0,0.5
12.35,4,-1.66928,-1.5708,1.76466e-14,-0.5,0,0.5
12.4,4,-1.69428,-1.5708,1.76466e-14,-0.5,0,0.5
12.45,4,-1.71928,-1.5708,1.76466e-14,-0.5,0,0.5
12.5,4,-1.74428,-1.5708,1.76466e-14,-0.5,0,0.5
12.55,4,-1.76928,-1.5708,1.76466e-14,-0.5,0,0.5
12.6,4,-1.79428,-1.5708,1.76466e-14,-0.5,0,0.5
12.65,4,-1.81928,-1.5708,1.76466e-14,-0.5,0,0.5
12.7,4,-1.84428,-1.5708,1.76466e-14,-0.5,0,0.5
12.75,4,-1.86928,-1.5708,1.76466e-14,-0.5,0,0.5
12.8,4,-1.89428,-1.5708,1.76466e-14,-0.5,0,0.5
12.85,4,-1.91928,-1.5708,1.76466e-14,-0.5,0,0.5
12.9,4,-1.94428,-1.5708,1.76466e-14,-0.5,0,0.5
12.95,4,-1.96928,-1.5708,1.76466e-14,-0.5,0,0.5
13,4,-1.99428,-1.5708,1.76466e-14,-0.5,0,0.5
13.05,4,-2.01928,-1.5708,1.76466e-14,-0.5,0,0.5
13.1,4,-2.04428,-1.5708,1.76466e-14,-0.5,0,0.5
13.15,4,-2.06928,-1.5708,1.76466e-14,-0.5,0,0.5
13.2,4,-2.09428,-1.5708,1.76466e-14,-0.5,0,0.5
13.25,4,-2.11928,-1.5708,1.76466e-14,-0.5,0,0.5
13.3,4,-2.14428,-1.5708,1.76466e-14,-0.5,0,0.5
13.35,4,-2.16928,-1.5708,1.76466e-14,-0.5,0,0.5
13.4,4,-2.19428,-1.5708,1.76466e-14,-0.5,0,0.5
13.45,4,-2.21928,-1.5708,1.76466e-14,-0.5,0,0.5
13.5,4,-2.24428,-1.5708,1.76466e-14,-0.5,0,0.5
13.55,4,-2.26928,-1.5708,1.76466e-14,-0.5,0,0.5
13.6,4,-2.29428,-1.5708,1.76466e-14,-0.5,0,0.5
13.65,4,-2.31928,-1.5708,1.76466e-14,-0.5,0,0.5
13.7,4,-2.34428,-1.5708,1.76466e-14,-0.5,0,0.5
13.75,4,-2.36928,-1.5708,1.76466e-14,-0.5,0,0.5
13.8,4,-2.39428,-1.5708,1.76466e-14,-0.5,0,0.5
13.85,4,-2.41928,-1.5708,1.76466e-14,-0.5,0,0.5
13.9,4,-2.44428,-1.5708,1.76466e-14,-0.5,0,0.5
13.95,4,-2.46928,-1.5708,1.76466e-14,-0.5,0,0.5
14,4,-2.49428,-1.5708,1.76466e-14,-0.5,0,0.5
14.05,4,-2.51928,-1.5708,1.76466e-14,-0.5,0,0.5
14.1,4,-2.54428,-1.5708,1.76466e-14,-0.5,0,0.5
14.15,4,-2.56928,-1.5708,1.76466e-14,-0.5,0,0.5
14.2,4,-2.59428,-1.5708,1.76466e-14,-0.5,0,0.5
14.25,4,-2.61928,-1.5708,1.76466e-14,-0.5,0,0.5
14.3,4,-2.64428,-1.5708,1.76466e-14,-0.5,0,0.5
14.35,4,-2.66928,-1.5708,1.76466e-14,-0.5,0,0.5
14.4,4,-2.69428,-1.5708,1.76466e-14,-0.5,0,0.5
14.45,4,-2.71928,-1.5708,1.76466e-14,-0.5,0,0.5
14.5,4,-2.74428,-1.5708,1.76466e-14,-0.5,0,0.5
14.55,4,-2.76928,-1.5708,1.76466e-14,-0.5,0,0.5
14.6,4,-2.79428,-1.5708,1.76466e-14,-0.5,0,0.5
14.65,4,-2.81928,-1.5708,1.76466e-14,-0.5,0,0.5
14.7,4,-2.84428,-1.5708,1.76466e-14,-0.5,0,0.5
14.75,4,-2.86928,-1.5708,1.76466e-14,-0.5,0,0.5
14.8,4,-2.89428,-1.5708,1.76466e-14,-0.5,0,0.5
14.85,4,-2.91928,-1.5708,1.76466e-14,-0.5,0,0.5
14.9,4,-2.94428,-1.5708,1.76466e-14,-0.5,0,0.5
14.95,4,-2.96928,-1.5708,1.76466e-14,-0.5,0,0.5
15,4,-2.99428,-1.5708,1.76466e-14,-0.5,0,0.5
15.05,4,-3.01928,-1.5708,1.76466e-14,-0.5,0,0.5
15.1,4,-3.04428,-1.5708,1.76466e-14,-0.5,0,0.5
15.15,4,-3.06928,-1.5708,1.76466e-14,-0.5,0,0.5
15.2,4,-3.09428,-1.5708,1.76466e-14,-0.5,0,0.5
15.25,4,-3.11928,-1.5708,1.76466e-14,-0.5,0,0.5
15.3,4,-3.14428,-1.5708,1.76466e-14,-0.5,0,0.5
15.35,4,-3.16928,-1.5708,1.76466e-14,-0.5,0,0.5
15.4,4,-3.19428,-1.5708,1.76466e-14,-0.5,0,0.5
15.45,4,-3.21928,-1.5708,1.76466e-14,-0.5,0,0.5
15.5,4,-3.24428,-1.5708,1.76466e-14,-0.5,0,0.5
15.55,4,-3.26928,-1.5708,1.76466e-14,-0.5,0,0.5
15.6,4,-3.29428,-1.5708,1.76466e-14,-0.5,0,0.5
15.65,4,-3.31928,-1.5708,1.76466e-14,-0.5,0,0.5
15.7,4,-3.34428,-1.5708,1.76466e-14,-0.5,0,0.5
15.75,4,-3.36928,-1.5708,1.76466e-14,-0.5,0,0.5
15.8,4,-3.39428,-1.5708,1.76466e-14,-0.5,0,0.5
15.85,4,-3.41928,-1.5708,1.76466e-14,-0.5,0,0.5
15.9,4,-3.44428,-1.5708,1.76466e-14,-0.5,0,0.5
15.95,4,-3.46928,-1.5708,1.76466e-14,-0.5,0,0.5
16,4,-3.49428,-1.5708,1.76466e-14,-0.5,0,0.5
16.05,4,-3.51928,-1.5708,1.76466e-14,-0.5,0,0.5
16.1,4,-3.54428,-1.5708,1.76466e-14,-0.5,0,0.5
16.15,4,-3.56928,-1.5708,1.76466e-14,-0.5,0,0.5
16.2,4,-3.59428,-1.5708,1.76466e-14,-0.5,0,0.5
16.25,4,-3.61928,-1.5708,1.76466e-14,-0.5,0,0.5
16.3,4,-3.64428,-1.5708,1.76466e-14,-0.5,0,0.5
16.35,4,-3.66928,-1.5708,1.76466e-14,-0.5,0,0.5
16.4,4,-3.69428,-1.5708,1.76466e-14,-0.5,0,0.5
16.45,4,-3.71928,-1.5708,1.76466e-14,-0.5,0,0.5
16.5,4,-3.74428,-1.5708,1.76466e-14,-0.5,0,0.5
16.55,4,-3.76928,-1.5708,1.76466e-14,-0.5,0,0.5
16.6,4,-3.79428,-1.5708,1.76466e-14,-0.5,0,0.5
16.65,4,-3.81928,-1.5708,1.76409e-14,-0.49984,0,0.49984
16.7,4,-3.84415,-1.5708,1.74202e-14,-0.493587,0,0.493587
16.75,4,-3.86848,-1.5708,1.68788e-14,-0.478246,0,0.478246
16.8,4,-3.89182,-1.5708,1.60165e-14,-0.453814,0,0.453814
16.85,4,-3.91371,-1.5708,1.48335e-14,-0.420293,0,0.420293
16.9,4,-3.9337,-1.5708,1.33296e-14,-0.377682,0,0.377682
16.95,4,-3.95133,-1.5708,1.15049e-14,-0.325982,0,0.325982
17,4,-3.96615,-1.5708,9.35945e-15,-0.265192,0,0.265192
17.05,4,-3.97777,-1.5708,7.08394e-15,-0.200717,0,0.200717
17.1,4,-3.98637,-1.5708,5.11242e-15,-0.144856,0,0.144856
17.15,4,-3.99241,-1.5708,3.4617e-15,-0.0980843,0,0.0980843
17.2,4,-3.99633,-1.5708,2.13179e-15,-0.0604023,0,0.0604023
17.25,4,-3.9986,-1.5708,1.12267e-15,-0.03181,0,0.03181
17.3,4,-3.99966,-1.5708,4.34364e-16,-0.0123073,0,0.0123073
17.35,4,-4,-1.5708,0,0,0,0
17.4,4,-4,-1.5708,0,0,0,0
