Time [s], X-Pos [m], Y-Pos [m], phi [rad], dX-Pos [m/s], dY-Pos [m/s], dphi [rad/s], Path Vel [m/s]
0,0,0,0,0,0,0,0
0.05,4.85338e-05,0,0,0.00291203,0,0,0.00291203
0.1,0.00038827,0,0,0.0116481,0,0,0.0116481
0.15,0.00131041,0,0,0.0262083,0,0,0.0262083
0.2,0.00310616,0,0,0.0465925,0,0,0.0465925
0.25,0.00606673,0,0,0.0728007,0,0,0.0728007
0.3,0.010483,0,0,0.104719,0,0,0.104719
0.35,0.0165033,0,0,0.135121,0,0,0.135121
0.4,0.0238981,0,0,0.1597,0,0,0.1597
0.45,0.0323762,0,0,0.178454,0,0,0.178454
0.5,0.0416464,0,0,0.191384,0,0,0.191384
0.55,0.0514175,0,0,0.19849,0,0,0.19849
0.6,0.0613994,0,0,0.2,0,0,0.2
0.65,0.0713994,0,0,0.2,0,0,0.2
0.7,0.0813994,0,0,0.2,0,0,0.2
0.75,0.0913994,0,0,0.2,0,0,0.2
0.8,0.101399,0,0,0.2,0,0,0.2
0.85,0.111399,0,0,0.2,0,0,0.2
0.9,0.121399,0,0,0.2,0,0,0.2
0.95,0.131399,0,0,0.2,0,0,0.2
1,0.141399,0,0,0.2,0,0,0.2
1.05,0.151399,0,0,0.2,0,0,0.2
1.1,0.161399,0,0,0.2,0,0,0.2
1.15,0.171399,0,0,0.2,0,0,0.2
1.2,0.181399,0,0,0.2,0,0,0.2
1.25,0.191399,0,0,0.2,0,0,0.2
1.3,0.201399,0,0,0.2,0,0,0.2
1.35,0.211399,0,0,0.2,0,0,0.2
1.4,0.221399,0,0,0.2,0,0,0.2
1.45,0.231399,0,0,0.2,0,0,0.2
1.5,0.241399,0,0,0.2,0,0,0.2
1.55,0.251399,0,0,0.2,0,0,0.2
1.6,0.261399,0,0,0.2,0,0,0.2
1.65,0.271399,0,0,0.2,0,0,0.2
1.7,0.281399,0,0,0.2,0,0,0.2
1.75,0.291399,0,0,0.2,0,0,0.2
1.8,0.301399,0,0,0.2,0,0,0.2
1.85,0.311399,0,0,0.2,0,0,0.2
1.9,0.321399,0,0,0.2,0,0,0.2
1.95,0.331399,0,0,0.2,0,0,0.2
2,0.341399,0,0,0.2,0,0,0.2
2.05,0.351399,0,0,0.2,0,0,0.2
2.1,0.361399,0,0,0.2,0,0,0.2
2.15,0.371399,0,0,0.2,0,0,0.2
2.2,0.381399,0,0,0.2,0,0,0.2
2.25,0.391399,0,0,0.2,0,0,0.2
2.3,0.401399,0,0,0.2,0,0,0.2
2.35,0.411399,0,0,0.2,0,0,0.2
2.4,0.421399,0,0,0.2,0,0,0.2
2.45,0.431399,0,0,0.2,0,0,0.2
2.5,0.441399,0,0,0.2,0,0,0.2
2.55,0.451399,0,0,0.2,0,0,0.2
2.6,0.461399,0,0,0.2,0,0,0.2
2.65,0.471399,0,0,0.2,0,0,0.2
2.7,0.481399,0,0,0.2,0,0,0.2
2.75,0.491399,0,0,0.2,0,0,0.2
2.8,0.501399,0,0,0.2,0,0,0.2
2.85,0.511399,0,0,0.2,0,0,0.2
2.9,0.521399,0,0,0.2,0,0,0.2
2.95,0.531399,0,0,0.2,0,0,0.2
3,0.541399,0,0,0.2,0,0,0.2
3.05,0.551399,0,0,0.2,0,0,0.2
3.1,0.561399,0,0,0.2,0,0,0.2
3.15,0.571399,0,0,0.2,0,0,0.2
3.2,0.581399,0,0,0.2,0,0,0.2
3.25,0.591399,0,0,0.2,0,0,0.2
3.3,0.601399,0,0,0.2,0,0,0.2
3.35,0.611399,0,0,0.2,0,0,0.2
3.4,0.621399,0,0,0.2,0,0,0.2
3.45,0.631399,0,0,0.2,0,0,0.2
3.5,0.641399,0,0,0.2,0,0,0.2
3.55,0.651399,0,0,0.2,0,0,0.2
3.6,0.661399,0,0,0.2,0,0,0.2
3.65,0.671399,0,0,0.2,0,0,0.2
3.7,0.681399,0,0,0.2,0,0,0.2
3.75,0.691399,0,0,0.2,0,0,0.2
3.8,0.701399,0,0,0.2,0,0,0.2
3.85,0.711399,0,0,0.2,0,0,0.2
3.9,0.721399,0,0,0.2,0,0,0.2
3.95,0.731399,0,0,0.2,0,0,0.2
4,0.741399,0,0,0.2,0,0,0.2
4.05,0.751399,0,0,0.2,0,0,0.2
4.1,0.761399,0,0,0.2,0,0,0.2
4.15,0.771399,0,0,0.2,0,0,0.2
4.2,0.781399,0,0,0.2,0,0,0.2
4.25,0.791399,0,0,0.2,0,0,0.2
4.3,0.801399,0,0,0.2,0,0,0.2
4.35,0.811399,0,0,0.2,0,0,0.2
4.4,0.821399,0,0,0.2,0,0,0.2
4.45,0.831399,0,0,0.2,0,0,0.2
4.5,0.841399,0,0,0.2,0,0,0.2
4.55,0.851399,0,0,0.2,0,0,0.2
4.6,0.861399,0,0,0.2,0,0,0.2
4.65,0.871399,0,0,0.2,0,0,0.2
4.7,0.881399,0,0,0.2,0,0,0.2
4.75,0.891399,0,0,0.2,0,0,0.2
4.8,0.901399,0,0,0.2,0,0,0.2
4.85,0.911399,0,0,0.2,0,0,0.2
4.9,0.921399,0,0,0.2,0,0,0.2
4.95,0.931399,0,0,0.2,0,0,0.2
5,0.941399,0,0,0.2,0,0,0.2
5.05,0.951399,0,0,0.2,0,0,0.2
5.1,0.961399,0,0,0.2,0,0,0.2
5.15,0.971399,0,0,0.2,0,0,0.2
5.2,0.981399,0,0,0.2,0,0,0.2
5.25,0.991399,0,0,0.2,0,0,0.2
5.3,1.0014,0,0,0.2,0,0,0.2
5.35,1.0114,0,0,0.2,0,0,0.2
5.4,1.0214,0,0,0.2,0,0,0.2
5.45,1.0314,0,0,0.2,0,0,0.2
5.5,1.0414,0,0,0.2,0,0,0.2
5.55,1.0514,0,0,0.2,0,0,0.2
5.6,1.0614,0,0,0.2,0,0,0.2
5.65,1.0714,0,0,0.2,0,0,0.2
5.7,1.0814,0,0,0.2,0,0,0.2
5.75,1.0914,0,0,0.2,0,0,0.2
5.8,1.1014,0,0,0.2,0,0,0.2
5.85,1.1114,0,0,0.2,0,0,0.2
5.9,1.1214,0,0,0.2,0,0,0.2
5.95,1.1314,0,0,0.2,0,0,0.2
6,1.1414,0,0,0.2,0,0,0.2
6.05,1.1514,0,0,0.2,0,0,0.2
6.1,1.1614,0,0,0.2,0,0,0.2
6.15,1.1714,0,0,0.2,0,0,0.2
6.2,1.1814,0,0,0.2,0,0,0.2
6.25,1.1914,0,0,0.2,0,0,0.2
6.3,1.2014,0,0,0.2,0,0,0.2
6.35,1.2114,0,0,0.2,0,0,0.2
6.4,1.2214,0,0,0.2,0,0,0.2
6.45,1.2314,0,0,0.2,0,0,0.2
6.5,1.2414,0,0,0.2,0,0,0.2
6.55,1.2514,0,0,0.2,0,0,0.2
6.6,1.2614,0,0,0.2,0,0,0.2
6.65,1.2714,0,0,0.2,0,0,0.2
6.7,1.2814,0,0,0.2,0,0,0.2
6.75,1.2914,0,0,0.2,0,0,0.2
6.8,1.3014,0,0,0.2,0,0,0.2
6.85,1.3114,0,0,0.2,0,0,0.2
6.9,1.3214,0,0,0.2,0,0,0.2
6.95,1.3314,0,0,0.2,0,0,0.2
7,1.3414,0,0,0.2,0,0,0.2
7.05,1.3514,0,0,0.2,0,0,0.2
7.1,1.3614,0,0,0.2,0,0,0.2
7.15,1.3714,0,0,0.2,0,0,0.2
7.2,1.3814,0,0,0.2,0,0,0.2
7.25,1.3914,0,0,0.2,0,0,0.2
7.3,1.4014,0,0,0.2,0,0,0.2
7.35,1.4114,0,0,0.2,0,0,0.2
7.4,1.4214,0,0,0.2,0,0,0.2
7.45,1.4314,0,0,0.2,0,0,0.2
7.5,1.4414,0,0,0.2,0,0,0.2
7.55,1.4514,0,0,0.2,0,0,0.2
7.6,1.4614,0,0,0.2,0,0,0.2
7.65,1.4714,0,0,0.2,0,0,0.2
7.7,1.4814,0,0,0.2,0,0,0.2
7.75,1.4914,0,0,0.2,0,0,0.2
7.8,1.5014,0,0,0.2,0,0,0.2
7.85,1.5114,0,0,0.2,0,0,0.2
7.9,1.5214,0,0,0.2,0,0,0.2
7.95,1.5314,0,0,0.2,0,0,0.2
8,1.5414,0,0,0.2,0,0,0.2
8.05,1.5514,0,0,0.2,0,0,0.2
8.1,1.5614,0,0,0.2,0,0,0.2
8.15,1.5714,0,0,0.2,0,0,0.2
8.2,1.5814,0,0,0.2,0,0,0.2
8.25,1.5914,0,0,0.2,0,0,0.2
8.3,1.6014,0,0,0.2,0,0,0.2
8.35,1.6114,0,0,0.2,0,0,0.2
8.4,1.6214,0,0,0.2,0,0,0.2
8.45,1.6314,0,0,0.2,0,0,0.2
8.5,1.6414,0,0,0.2,0,0,0.2
8.55,1.6514,0,0,0.2,0,0,0.2
8.6,1.6614,0,0,0.2,0,0,0.2
8.65,1.6714,0,0,0.2,0,0,0.2
8.7,1.6814,0,0,0.2,0,0,0.2
8.75,1.6914,0,0,0.2,0,0,0.2
8.8,1.7014,0,0,0.2,0,0,0.2
8.85,1.7114,0,0,0.2,0,0,0.2
8.9,1.7214,0,0,0.2,0,0,0.2
8.95,1.7314,0,0,0.2,0,0,0.2
9,1.7414,0,0,0.2,0,0,0.2
9.05,1.7514,0,0,0.2,0,0,0.2
9.1,1.7614,0,0,0.2,0,0,0.2
9.15,1.7714,0,0,0.2,0,0,0.2
9.2,1.7814,0,0,0.2,0,0,0.2
9.25,1.7914,0,0,0.2,0,0,0.2
9.3,1.8014,0,0,0.2,0,0,0.2
9.35,1.8114,0,0,0.2,0,0,0.2
9.4,1.8214,0,0,0.2,0,0,0.2
9.45,1.8314,0,0,0.2,0,0,0.2
9.5,1.8414,0,0,0.2,0,0,0.2
9.55,1.8514,0,0,0.2,0,0,0.2
9.6,1.8614,0,0,0.2,0,0,0.2
9.65,1.8714,0,0,0.2,0,0,0.2
9.7,1.8814,0,0,0.2,0,0,0.2
9.75,1.8914,0,0,0.2,0,0,0.2
9.8,1.9014,0,0,0.2,0,0,0.2
9.85,1.9114,0,0,0.2,0,0,0.2
9.9,1.9214,0,0,0.2,0,0,0.2
9.95,1.9314,0,0,0.2,0,0,0.2
10,1.9414,0,0,0.2,0,0,0.2
10.05,1.9514,0,0,0.2,0,0,0.2
10.1,1.9614,0,0,0.2,0,0,0.2
10.15,1.9714,0,0,0.2,0,0,0.2
10.2,1.9814,0,0,0.2,0,0,0.2
10.25,1.9914,0,0,0.2,0,0,0.2
10.3,2.0014,0,0,0.2,0,0,0.2
10.35,2.0114,0,0,0.2,0,0,0.2
10.4,2.0214,0,0,0.2,0,0,0.2
10.45,2.0314,0,0,0.2,0,0,0.2
10.5,2.0414,0,0,0.2,0,0,0.2
10.55,2.0514,0,0,0.2,0,0,0.2
10.6,2.0614,0,0,0.2,0,0,0.2
10.65,2.0714,0,0,0.2,0,0,0.2
10.7,2.0814,0,0,0.2,0,0,0.2
10.75,2.0914,0,0,0.2,0,0,0.2
10.8,2.1014,0,0,0.2,0,0,0.2
10.85,2.1114,0,0,0.2,0,0,0.2
10.9,2.1214,0,0,0.2,0,0,0.2
10.95,2.1314,0,0,0.2,0,0,0.2
11,2.1414,0,0,0.2,0,0,0.2
11.05,2.1514,0,0,0.2,0,0,0.2
11.1,2.1614,0,0,0.2,0,0,0.2
11.15,2.1714,0,0,0.2,0,0,0.2
11.2,2.1814,0,0,0.2,0,0,0.2
11.25,2.1914,0,0,0.2,0,0,0.2
11.3,2.2014,0,0,0.2,0,0,0.2
11.35,2.2114,0,0,0.2,0,0,0.2
11.4,2.2214,0,0,0.2,0,0,0.2
11.45,2.2314,0,0,0.2,0,0,0.2
11.5,2.2414,0,0,0.2,0,0,0.2
11.55,2.2514,0,0,0.2,0,0,0.2
11.6,2.2614,0,0,0.2,0,0,0.2
11.65,2.2714,0,0,0.2,0,0,0.2
11.7,2.2814,0,0,0.2,0,0,0.2
11.75,2.2914,0,0,0.2,0,0,0.2
11.8,2.3014,0,0,0.2,0,0,0.2
11.85,2.3114,0,0,0.2,0,0,0.2
11.9,2.3214,0,0,0.2,0,0,0.2
11.95,2.3314,0,0,0.2,0,0,0.2
12,2.3414,0,0,0.2,0,0,0.2
12.05,2.3514,0,0,0.2,0,0,0.2
12.1,2.3614,0,0,0.2,0,0,0.2
12.15,2.3714,0,0,0.2,0,0,0.2
12.2,2.3814,0,0,0.2,0,0,0.2
12.25,2.3914,0,0,0.2,0,0,0.2
12.3,2.4014,0,0,0.2,0,0,0.2
12.35,2.4114,0,0,0.2,0,0,0.2
12.4,2.4214,0,0,0.2,0,0,0.2
12.45,2.4314,0,0,0.2,0,0,0.2
12.5,2.4414,0,0,0.2,0,0,0.2
12.55,2.4514,0,0,0.2,0,0,0.2
12.6,2.4614,0,0,0.2,0,0,0.2
12.65,2.4714,0,0,0.2,0,0,0.2
12.7,2.4814,0,0,0.2,0,0,0.2
12.75,2.4914,0,0,0.2,0,0,0.2
12.8,2.5014,0,0,0.2,0,0,0.2
12.85,2.5114,0,0,0.2,0,0,0.2
12.9,2.5214,0,0,0.2,0,0,0.2
12.95,2.5314,0,0,0.2,0,0,0.2
13,2.5414,0,0,0.2,0,0,0.2
13.05,2.5514,0,0,0.2,0,0,0.2
13.1,2.5614,0,0,0.2,0,0,0.2
13.15,2.5714,0,0,0.2,0,0,0.2
13.2,2.5814,0,0,0.2,0,0,0.2
13.25,2.5914,0,0,0.2,0,0,0.2
13.3,2.6014,0,0,0.2,0,0,0.2
13.35,2.6114,0,0,0.2,0,0,0.2
13.4,2.6214,0,0,0.2,0,0,0.2
13.45,2.6314,0,0,0.2,0,0,0.2
13.5,2.6414,0,0,0.2,0,0,0.2
13.55,2.6514,0,0,0.2,0,0,0.2
13.6,2.6614,0,0,0.2,0,0,0.2
13.65,2.6714,0,0,0.2,0,0,0.2
13.7,2.6814,0,0,0.2,0,0,0.2
13.75,2.6914,0,0,0.2,0,0,0.2
13.8,2.7014,0,0,0.2,0,0,0.2
13.85,2.7114,0,0,0.2,0,0,0.2
13.9,2.7214,0,0,0.2,0,0,0.2
13.95,2.7314,0,0,0.2,0,0,0.2
14,2.7414,0,0,0.2,0,0,0.2
14.05,2.7514,0,0,0.2,0,0,0.2
14.1,2.7614,0,0,0.2,0,0,0.2
14.15,2.7714,0,0,0.2,0,0,0.2
14.2,2.7814,0,0,0.2,0,0,0.2
14.25,2.7914,0,0,0.2,0,0,0.2
14.3,2.8014,0,0,0.2,0,0,0.2
14.35,2.8114,0,0,0.2,0,0,0.2
14.4,2.8214,0,0,0.2,0,0,0.2
14.45,2.8314,0,0,0.2,0,0,0.2
14.5,2.8414,0,0,0.2,0,0,0.2
14.55,2.8514,0,0,0.2,0,0,0.2
14.6,2.8614,0,0,0.2,0,0,0.2
14.65,2.8714,0,0,0.2,0,0,0.2
14.7,2.8814,0,0,0.2,0,0,0.2
14.75,2.8914,0,0,0.2,0,0,0.2
14.8,2.9014,0,0,0.2,0,0,0.2
14.85,2.9114,0,0,0.2,0,0,0.2
14.9,2.9214,0,0,0.2,0,0,0.2
14.95,2.9314,0,0,0.2,0,0,0.2
15,2.9414,0,0,0.2,0,0,0.2
15.05,2.9514,0,0,0.2,0,0,0.2
15.1,2.9614,0,0,0.2,0,0,0.2
15.15,2.9714,0,0,0.2,0,0,0.2
15.2,2.9814,0,0,0.2,0,0,0.2
15.25,2.9914,0,0,0.2,0,0,0.2
15.3,3.0014,0,0,0.2,0,0,0.2
15.35,3.0114,0,0,0.2,0,0,0.2
15.4,3.0214,0,0,0.2,0,0,0.2
15.45,3.0314,0,0,0.2,0,0,0.2
15.5,3.0414,0,0,0.2,0,0,0.2
15.55,3.0514,0,0,0.2,0,0,0.2
15.6,3.0614,0,0,0.2,0,0,0.2
15.65,3.0714,0,0,0.2,0,0,0.2
15.7,3.0814,0,0,0.2,0,0,0.2
15.75,3.0914,0,0,0.2,0,0,0.2
15.8,3.1014,0,0,0.2,0,0,0.2
15.85,3.1114,0,0,0.2,0,0,0.2
15.9,3.1214,0,0,0.2,0,0,0.2
15.95,3.1314,0,0,0.2,0,0,0.2
16,3.1414,0,0,0.2,0,0,0.2
16.05,3.1514,0,0,0.2,0,0,0.2
16.1,3.1614,0,0,0.2,0,0,0.2
16.15,3.1714,0,0,0.2,0,0,0.2
16.2,3.1814,0,0,0.2,0,0,0.2
16.25,3.1914,0,0,0.2,0,0,0.2
16.3,3.2014,0,0,0.2,0,0,0.2
16.35,3.2114,0,0,0.2,0,0,0.2
16.4,3.2214,0,0,0.2,0,0,0.2
16.45,3.2314,0,0,0.2,0,0,0.2
16.5,3.2414,0,0,0.2,0,0,0.2
16.55,3.2514,0,0,0.2,0,0,0.2
16.6,3.2614,0,0,0.2,0,0,0.2
16.65,3.2714,0,0,0.2,0,0,0.2
16.7,3.2814,0,0,0.2,0,0,0.2
16.75,3.2914,0,0,0.2,0,0,0.2
16.8,3.3014,0,0,0.2,0,0,0.2
16.85,3.3114,0,0,0.2,0,0,0.2
16.9,3.3214,0,0,0.2,0,0,0.2
16.95,3.3314,0,0,0.2,0,0,0.2
17,3.3414,0,0,0.2,0,0,0.2
17.05,3.3514,0,0,0.2,0,0,0.2
17.1,3.3614,0,0,0.2,0,0,0.2
17.15,3.3714,0,0,0.2,0,0,0.2
17.2,3.3814,0,0,0.2,0,0,0.2
17.25,3.3914,0,0,0.2,0,0,0.2
17.3,3.4014,0,0,0.200057,0,0,0.200057
17.35,3.41,1.44949e-07,4.34848e-05,0.2,8.69697e-06,0.00173939,0.2
17.4,3.42,1.1596e-06,0.000173939,0.2,3.47879e-05,0.00347879,0.2
17.45,3.43,3.91364e-06,0.000391364,0.2,7.82727e-05,0.00521818,0.2
17.5,3.44,9.27677e-06,0.000695757,0.2,0.000139151,0.00695757,0.2
17.55,3.45,1.81187e-05,0.00108712,0.2,0.000217424,0.00869697,0.2
17.6,3.46,3.13091e-05,0.00156545,0.2,0.000313091,0.0104364,0.2
17.65,3.47,4.97177e-05,0.00213076,0.2,0.000426151,0.0121758,0.2
17.7,3.48,7.42141e-05,0.00278303,0.199999,0.000556605,0.0139151,0.2
17.75,3.49,0.000105668,0.00352227,0.199999,0.000704453,0.0156545,0.2
17.8,3.5,0.000144949,0.00434848,0.199998,0.000869694,0.0173939,0.2
17.85,3.51,0.000192927,0.00526167,0.199997,0.00105233,0.0191333,0.2
17.9,3.52,0.000250472,0.00626182,0.199996,0.00125236,0.0208727,0.2
17.95,3.53,0.000318453,0.00734894,0.199995,0.00146977,0.0226121,0.2
18,3.54,0.000397739,0.00852303,0.199993,0.00170459,0.0243515,0.2
18.05,3.55,0.000489201,0.00978409,0.19999,0.00195679,0.0260909,0.2
18.1,3.56,0.000593708,0.0111321,0.199988,0.00222638,0.0278303,0.2
18.15,3.57,0.000712129,0.0125671,0.199984,0.00251336,0.0295697,0.2
18.2,3.58,0.000845333,0.0140891,0.19998,0.00281772,0.0313091,0.2
18.25,3.59,0.000994191,0.015698,0.199975,0.00313948,0.0330485,0.2
18.3,3.59999,0.00115957,0.0173939,0.19997,0.00347861,0.0347879,0.2
18.35,3.60999,0.00134234,0.0191768,0.199963,0.00383513,0.0365273,0.2
18.4,3.61999,0.00154337,0.0210467,0.199956,0.00420902,0.0382667,0.2
18.45,3.62999,0.00176353,0.0230035,0.199947,0.00460029,0.0400061,0.2
18.5,3.63998,0.00200369,0.0250473,0.199937,0.00500893,0.0417454,0.2
18.55,3.64998,0.00226472,0.027178,0.199926,0.00543494,0.0434848,0.2
18.6,3.65998,0.00254747,0.0293958,0.199914,0.0058783,0.0452242,0.2
18.65,3.66997,0.00285284,0.0317004,0.1999,0.00633903,0.0469636,0.2
18.7,3.67997,0.00318167,0.0340921,0.199884,0.0068171,0.048703,0.2
18.75,3.68996,0.00353483,0.0365708,0.199866,0.00731252,0.0504424,0.2
18.8,3.69995,0.00391321,0.0391364,0.199847,0.00782527,0.0521818,0.2
18.85,3.70995,0.00431765,0.0417889,0.199825,0.00835535,0.0539212,0.2
18.9,3.71994,0.00474903,0.0445285,0.199802,0.00890275,0.0556606,0.2
18.95,3.72993,0.00520821,0.047355,0.199776,0.00946746,0.0574,0.2
19,3.73991,0.00569607,0.0502685,0.199747,0.0100495,0.0591394,0.2
19.05,3.7499,0.00621345,0.0532689,0.199716,0.0106487,0.0608788,0.2
19.1,3.75989,0.00676123,0.0563564,0.199682,0.0112653,0.0626182,0.2
19.15,3.76987,0.00734027,0.0595307,0.199646,0.0118991,0.0643576,0.2
19.2,3.77985,0.00795143,0.0627921,0.199606,0.0125502,0.066097,0.2
19.25,3.78983,0.00859557,0.0661404,0.199563,0.0132184,0.0678364,0.2
19.3,3.79981,0.00927356,0.0695757,0.199516,0.0139039,0.0695757,0.2
19.35,3.80978,0.00998625,0.073098,0.199466,0.0146066,0.0713151,0.2
19.4,3.81975,0.0107345,0.0767073,0.199412,0.0153264,0.0730545,0.2
19.45,3.82972,0.0115192,0.0804035,0.199354,0.0160634,0.0747939,0.2
19.5,3.83969,0.0123411,0.0841867,0.199292,0.0168174,0.0765333,0.2
19.55,3.84965,0.0132012,0.0880568,0.199225,0.0175886,0.0782727,0.2
19.6,3.85961,0.0141003,0.0920139,0.199154,0.0183768,0.0800121,0.2
19.65,3.86957,0.0150392,0.096058,0.199078,0.0191821,0.0817515,0.2
19.7,3.87952,0.0160188,0.100189,0.198997,0.0200043,0.0834909,0.2
19.75,3.88947,0.0170399,0.104407,0.198911,0.0208435,0.0852303,0.2
19.8,3.89941,0.0181034,0.108712,0.198819,0.0216996,0.0869697,0.2
19.85,3.90935,0.0192101,0.113104,0.198722,0.0225726,0.0887091,0.2
19.9,3.91928,0.0203609,0.117583,0.198619,0.0234625,0.0904485,0.2
19.95,3.92921,0.0215567,0.122149,0.19851,0.0243691,0.0921879,0.2
20,3.93913,0.0227981,0.126802,0.198394,0.0252925,0.0939273,0.2
20.05,3.94905,0.0240862,0.131542,0.198272,0.0262325,0.0956667,0.2
20.1,3.95896,0.0254217,0.136368,0.198143,0.0271892,0.097406,0.2
20.15,3.96886,0.0268054,0.141282,0.198007,0.0281625,0.0991454,0.2
20.2,3.97876,0.0282382,0.146283,0.197864,0.0291524,0.100885,0.2
20.25,3.98865,0.0297209,0.151371,0.197713,0.0301587,0.102624,0.2
20.3,3.99853,0.0312543,0.156545,0.197554,0.0311814,0.104364,0.2
20.35,4.0084,0.0328393,0.161807,0.197388,0.0322204,0.106103,0.2
20.4,4.01827,0.0344766,0.167156,0.197212,0.0332757,0.107842,0.2
20.45,4.02813,0.0361671,0.172591,0.197029,0.0343472,0.109582,0.2
20.5,4.03797,0.0379116,0.178114,0.196836,0.0354347,0.111321,0.2
20.55,4.04781,0.0397109,0.183723,0.196634,0.0365383,0.113061,0.2
20.6,4.05764,0.0415657,0.18942,0.196423,0.0376579,0.1148,0.2
20.65,4.06745,0.0434769,0.195203,0.196202,0.0387932,0.116539,0.2
20.7,4.07726,0.0454453,0.201074,0.195971,0.0399443,0.118279,0.2
20.75,4.08705,0.0474716,0.207031,0.195729,0.0411111,0.120018,0.2
20.8,4.09683,0.0495567,0.213076,0.195477,0.0422934,0.121758,0.2
20.85,4.1066,0.0517012,0.219207,0.195214,0.0434912,0.123497,0.2
20.9,4.11635,0.053906,0.225425,0.19494,0.0447042,0.125236,0.2
20.95,4.12609,0.0561719,0.231731,0.194654,0.0459325,0.126976,0.2
21,4.13582,0.0584995,0.238123,0.194356,0.0471758,0.128715,0.2
21.05,4.14553,0.0608897,0.244602,0.194047,0.0484341,0.130455,0.2
21.1,4.15522,0.0633432,0.251168,0.193725,0.0497072,0.132194,0.2
21.15,4.1649,0.0658607,0.257822,0.19339,0.050995,0.133933,0.2
21.2,4.17456,0.0684429,0.264562,0.193041,0.0522973,0.135673,0.2
21.25,4.1842,0.0710907,0.271389,0.19268,0.053614,0.137412,0.2
21.3,4.19383,0.0738046,0.278303,0.192305,0.0549449,0.139151,0.2
21.35,4.20343,0.0765854,0.285304,0.191915,0.0562898,0.140891,0.2
21.4,4.21302,0.0794338,0.292392,0.191511,0.0576487,0.14263,0.2
21.45,4.22258,0.0823505,0.299567,0.191093,0.0590213,0.14437,0.2
21.5,4.23213,0.0853361,0.306829,0.190659,0.0604075,0.146109,0.2
21.55,4.24165,0.0883914,0.314178,0.19021,0.061807,0.147848,0.2
21.6,4.25115,0.0915171,0.321614,0.189745,0.0632196,0.149588,0.2
21.65,4.26062,0.0947136,0.329137,0.189264,0.0646453,0.151327,0.2
21.7,4.27007,0.0979818,0.336747,0.188767,0.0660836,0.153067,0.2
21.75,4.2795,0.101322,0.344443,0.188253,0.0675346,0.154806,0.2
21.8,4.2889,0.104735,0.352227,0.187721,0.0689978,0.156545,0.2
21.85,4.29827,0.108222,0.360098,0.187172,0.0704732,0.158285,0.2
21.9,4.30762,0.111783,0.368056,0.186606,0.0719604,0.160024,0.2
21.95,4.31693,0.115418,0.3761,0.186021,0.0734592,0.161764,0.2
22,4.32622,0.119129,0.384232,0.185417,0.0749695,0.163503,0.2
22.05,4.33547,0.122916,0.392451,0.184795,0.0764908,0.165242,0.2
22.1,4.3447,0.126778,0.400756,0.184153,0.078023,0.166982,0.2
22.15,4.35389,0.130718,0.409149,0.183492,0.0795657,0.168721,0.2
22.2,4.36304,0.134735,0.417628,0.182811,0.0811188,0.170461,0.2
22.25,4.37217,0.13883,0.426195,0.182109,0.0826818,0.1722,0.2
22.3,4.38126,0.143003,0.434848,0.181387,0.0842546,0.173939,0.2
22.35,4.39031,0.147256,0.443589,0.180643,0.0858368,0.175679,0.2
22.4,4.39932,0.151587,0.452416,0.179879,0.087428,0.177418,0.2
22.45,4.40829,0.155999,0.461331,0.179092,0.089028,0.179158,0.2
22.5,4.41723,0.16049,0.470332,0.178284,0.0906365,0.180897,0.2
22.55,4.42612,0.165062,0.47942,0.177452,0.092253,0.182636,0.2
22.6,4.43497,0.169716,0.488596,0.176599,0.0938773,0.184376,0.2
22.65,4.44378,0.17445,0.497858,0.175722,0.0955089,0.186115,0.2
22.7,4.45254,0.179267,0.507207,0.174821,0.0971476,0.187855,0.2
22.75,4.46126,0.184165,0.516643,0.173896,0.0987929,0.189594,0.2
22.8,4.46993,0.189146,0.526167,0.172948,0.100444,0.191333,0.2
22.85,4.47856,0.19421,0.535777,0.171974,0.102102,0.193073,0.2
22.9,4.48713,0.199356,0.545474,0.170976,0.103765,0.194812,0.2
22.95,4.49565,0.204586,0.555258,0.169953,0.105433,0.196551,0.2
23,4.50413,0.2099,0.565129,0.168904,0.107105,0.198291,0.2
23.05,4.51254,0.215297,0.575087,0.167829,0.108782,0.20003,0.2
23.1,4.52091,0.220778,0.585132,0.166728,0.110462,0.20177,0.2
23.15,4.52922,0.226343,0.595264,0.1656,0.112145,0.203509,0.2
23.2,4.53747,0.231992,0.605483,0.164445,0.113832,0.205248,0.2
23.25,4.54566,0.237726,0.615789,0.163264,0.115521,0.206988,0.2
23.3,4.55379,0.243545,0.626182,0.162054,0.117211,0.208727,0.2
23.35,4.56187,0.249447,0.636662,0.160817,0.118903,0.210467,0.2
23.4,4.56988,0.255435,0.647228,0.159552,0.120596,0.212206,0.2
23.45,4.57782,0.261507,0.657882,0.158258,0.122288,0.213945,0.2
23.5,4.5857,0.267664,0.668623,0.156935,0.123981,0.215685,0.2
23.55,4.59351,0.273905,0.679451,0.155584,0.125673,0.217424,0.2
23.6,4.60126,0.280231,0.690365,0.154203,0.127364,0.219164,0.2
23.65,4.60893,0.286641,0.701367,0.152792,0.129053,0.220903,0.2
23.7,4.61654,0.293136,0.712456,0.151352,0.130739,0.222642,0.2
23.75,4.62407,0.299715,0.723631,0.149881,0.132422,0.224382,0.2
23.8,4.63152,0.306378,0.734894,0.14838,0.134102,0.226121,0.2
23.85,4.63891,0.313125,0.746243,0.146849,0.135777,0.227861,0.2
23.9,4.64621,0.319956,0.75768,0.145286,0.137448,0.2296,0.2
23.95,4.65343,0.32687,0.769203,0.143693,0.139113,0.231339,0.2
24,4.66058,0.333867,0.780814,0.142068,0.140772,0.233079,0.2
24.05,4.66764,0.340947,0.792479,0.140416,0.142419,0.232706,0.2
24.1,4.67462,0.348109,0.804071,0.138756,0.144037,0.230966,0.2
24.15,4.68152,0.355351,0.815576,0.13709,0.145624,0.229227,0.2
24.2,4.68833,0.362671,0.826994,0.135418,0.14718,0.227488,0.2
24.25,4.69506,0.370069,0.838325,0.133742,0.148705,0.225748,0.2
24.3,4.7017,0.377542,0.849569,0.132061,0.150199,0.224009,0.2
24.35,4.70826,0.385089,0.860725,0.130378,0.151663,0.222269,0.2
24.4,4.71474,0.392708,0.871795,0.128691,0.153097,0.22053,0.2
24.45,4.72113,0.400398,0.882778,0.127001,0.154501,0.218791,0.2
24.5,4.72744,0.408158,0.893675,0.12531,0.155876,0.217051,0.2
24.55,4.73366,0.415986,0.904484,0.123618,0.157221,0.215312,0.2
24.6,4.7398,0.42388,0.915206,0.121926,0.158538,0.213572,0.2
24.65,4.74586,0.43184,0.925841,0.120233,0.159825,0.211833,0.2
24.7,4.75183,0.439863,0.936389,0.11854,0.161085,0.210094,0.2
24.75,4.75771,0.447948,0.94685,0.116848,0.162316,0.208354,0.2
24.8,4.76351,0.456094,0.957224,0.115158,0.163519,0.206615,0.2
24.85,4.76923,0.4643,0.967512,0.11347,0.164695,0.204876,0.2
24.9,4.77486,0.472564,0.977712,0.111784,0.165844,0.203136,0.2
24.95,4.7804,0.480885,0.987825,0.110101,0.166966,0.201397,0.2
25,4.78587,0.489261,0.997852,0.108422,0.168062,0.199657,0.2
