Time [s], X-Pos [m], Y-Pos [m], phi [rad], dphi [rad/s], Path Vel [m/s], v_l [rpm], v_r [rpm]
0,0,0,0,0,0,0,0
0.05,7.5747e-05,0,0,0,0.00454482,8,8
0.1,0.000605976,0,0,0,0.0181793,32,32
0.15,0.00204517,0,0,0,0.0409034,71,71
0.2,0.00484781,0,0,0,0.0727171,126,126
0.25,0.00946389,0,0,0,0.112751,196,196
0.3,0.0160214,0,0,0,0.148032,257,257
0.35,0.0241156,0,0,0,0.174224,302,302
0.4,0.0332923,0,0,0,0.191326,332,332
0.45,0.0430968,0,0,0,0.199339,346,346
0.5,0.0530926,0,0,0,0.2,347,347
0.55,0.0630926,0,0,0,0.2,347,347
0.6,0.0730926,0,0,0,0.2,347,347
0.65,0.0830926,0,0,0,0.2,347,347
0.7,0.0930926,0,0,0,0.2,347,347
0.75,0.103093,0,0,0,0.2,347,347
0.8,0.113093,0,0,0,0.2,347,347
0.85,0.123093,0,0,0,0.2,347,347
0.9,0.133093,0,0,0,0.2,347,347
0.95,0.143093,0,0,0,0.2,347,347
1,0.153093,0,0,0,0.2,347,347
1.05,0.163093,0,0,0,0.2,347,347
1.1,0.173093,0,0,0,0.2,347,347
1.15,0.183093,0,0,0,0.2,347,347
1.2,0.193093,0,0,0,0.2,347,347
1.25,0.203093,0,0,0,0.2,347,347
1.3,0.213093,0,0,0,0.2,347,347
1.35,0.223093,0,0,0,0.2,347,347
1.4,0.233093,0,0,0,0.2,347,347
1.45,0.243093,0,0,0,0.2,347,347
1.5,0.253093,0,0,0,0.2,347,347
1.55,0.263093,0,0,0,0.2,347,347
1.6,0.273093,0,0,0,0.2,347,347
1.65,0.283093,0,0,0,0.2,347,347
1.7,0.293093,0,0,0,0.2,347,347
1.75,0.303093,0,0,0,0.2,347,347
1.8,0.313093,0,0,0,0.2,347,347
1.85,0.323093,0,0,0,0.2,347,347
1.9,0.333093,0,0,0,0.2,347,347
1.95,0.343093,0,0,0,0.2,347,347
2,0.353093,0,0,0,0.2,347,347
2.05,0.363093,0,0,0,0.2,347,347
2.1,0.373093,0,0,0,0.2,347,347
2.15,0.383093,0,0,0,0.2,347,347
2.2,0.393093,0,0,0,0.2,347,347
2.25,0.403093,0,0,0,0.2,347,347
2.3,0.413093,0,0,0,0.2,347,347
2.35,0.423093,0,0,0,0.2,347,347
2.4,0.433093,0,0,0,0.2,347,347
2.45,0.443093,0,0,0,0.2,347,347
2.5,0.453093,0,0,0,0.2,347,347
2.55,0.463093,0,0,0,0.2,347,347
2.6,0.473093,0,0,0,0.2,347,347
2.65,0.483093,0,0,0,0.2,347,347
2.7,0.493093,0,0,0,0.2,347,347
2.75,0.503093,0,0,0,0.2,347,347
2.8,0.513093,0,0,0,0.2,347,347
2.85,0.523093,0,0,0,0.2,347,347
2.9,0.533093,0,0,0,0.2,347,347
2.95,0.543093,0,0,0,0.2,347,347
3,0.553093,0,0,0,0.2,347,347
3.05,0.563093,0,0,0,0.2,347,347
3.1,0.573093,0,0,0,0.2,347,347
3.15,0.583093,0,0,0,0.2,347,347
3.2,0.593093,0,0,0,0.2,347,347
3.25,0.603093,0,0,0,0.2,347,347
3.3,0.613093,0,0,0,0.2,347,347
3.35,0.623093,0,0,0,0.2,347,347
3.4,0.633093,0,0,0,0.2,347,347
3.45,0.643093,0,0,0,0.2,347,347
3.5,0.653093,0,0,0,0.2,347,347
3.55,0.663093,0,0,0,0.2,347,347
3.6,0.673093,0,0,0,0.2,347,347
3.65,0.683093,0,0,0,0.2,347,347
3.7,0.693093,0,0,0,0.2,347,347
3.75,0.703093,0,0,0,0.2,347,347
3.8,0.713093,0,0,0,0.2,347,347
3.85,0.723093,0,0,0,0.2,347,347
3.9,0.733093,0,0,0,0.2,347,347
3.95,0.743093,0,0,0,0.2,347,347
4,0.753093,0,0,0,0.2,347,347
4.05,0.763093,0,0,0,0.2,347,347
4.1,0.773093,0,0,0,0.2,347,347
4.15,0.783093,0,0,0,0.2,347,347
4.2,0.793093,0,0,0,0.2,347,347
4.25,0.803093,0,0,0,0.2,347,347
4.3,0.813093,0,0,0,0.2,347,347
4.35,0.823093,0,0,0,0.2,347,347
4.4,0.833093,0,0,0,0.2,347,347
4.45,0.843093,0,0,0,0.2,347,347
4.5,0.853093,0,0,0,0.2,347,347
4.55,0.863093,0,0,0,0.2,347,347
4.6,0.873093,0,0,0,0.2,347,347
4.65,0.883093,0,0,0,0.2,347,347
4.7,0.893093,0,0,0,0.2,347,347
4.75,0.903093,0,0,0,0.2,347,347
4.8,0.913093,0,0,0,0.2,347,347
4.85,0.923093,0,0,0,0.2,347,347
4.9,0.933093,0,0,0,0.2,347,347
4.95,0.943093,0,0,0,0.2,347,347
5,0.953093,0,0,0,0.2,347,347
5.05,0.963093,0,0,0,0.2,347,347
5.1,0.973093,0,0,0,0.2,347,347
5.15,0.983093,0,0,0,0.2,347,347
5.2,0.993093,0,0,0,0.2,347,347
5.25,1.00309,0,0,0,0.2,347,347
5.3,1.01309,0,0,0,0.2,347,347
5.35,1.02309,0,0,0,0.2,347,347
5.4,1.03309,0,0,0,0.2,347,347
5.45,1.04309,0,0,0,0.2,347,347
5.5,1.05309,0,0,0,0.2,347,347
5.55,1.06309,0,0,0,0.2,347,347
5.6,1.07309,0,0,0,0.2,347,347
5.65,1.08309,0,0,0,0.2,347,347
5.7,1.09309,0,0,0,0.2,347,347
5.75,1.10309,0,0,0,0.2,347,347
5.8,1.11309,0,0,0,0.2,347,347
5.85,1.12309,0,0,0,0.2,347,347
5.9,1.13309,0,0,0,0.2,347,347
5.95,1.14309,0,0,0,0.2,347,347
6,1.15309,0,0,0,0.2,347,347
6.05,1.16309,0,0,0,0.2,347,347
6.1,1.17309,0,0,0,0.2,347,347
6.15,1.18309,0,0,0,0.2,347,347
6.2,1.19309,0,0,0,0.2,347,347
6.25,1.20309,0,0,0,0.2,347,347
6.3,1.21309,0,0,0,0.2,347,347
6.35,1.22309,0,0,0,0.2,347,347
6.4,1.23309,0,0,0,0.2,347,347
6.45,1.24309,0,0,0,0.2,347,347
6.5,1.25309,0,0,0,0.2,347,347
6.55,1.26309,0,0,0,0.2,347,347
6.6,1.27309,0,0,0,0.2,347,347
6.65,1.28309,0,0,0,0.2,347,347
6.7,1.29309,0,0,0,0.2,347,347
6.75,1.30309,0,0,0,0.2,347,347
6.8,1.31309,0,0,0,0.2,347,347
6.85,1.32309,0,0,0,0.2,347,347
6.9,1.33309,0,0,0,0.2,347,347
6.95,1.34309,0,0,0,0.2,347,347
7,1.35309,0,0,0,0.2,347,347
7.05,1.36309,0,0,0,0.2,347,347
7.1,1.37309,0,0,0,0.2,347,347
7.15,1.38309,0,0,0,0.2,347,347
7.2,1.39309,0,0,0,0.2,347,347
7.25,1.40309,0,0,0,0.2,347,347
7.3,1.41309,0,0,0,0.2,347,347
7.35,1.42309,0,0,0,0.2,347,347
7.4,1.43309,0,0,0,0.2,347,347
7.45,1.44309,0,0,0,0.2,347,347
7.5,1.45309,0,0,0,0.2,347,347
7.55,1.46309,0,0,0,0.2,347,347
7.6,1.47309,0,0,0,0.2,347,347
7.65,1.48309,0,0,0,0.2,347,347
7.7,1.49309,0,0,0,0.2,347,347
7.75,1.50309,0,0,0,0.2,347,347
7.8,1.51309,0,0,0,0.2,347,347
7.85,1.52309,0,0,0,0.2,347,347
7.9,1.53309,0,0,0,0.2,347,347
7.95,1.54309,0,0,0,0.2,347,347
8,1.55309,0,0,0,0.2,347,347
8.05,1.56309,0,0,0,0.2,347,347
8.1,1.57309,0,0,0,0.2,347,347
8.15,1.58309,0,0,0,0.2,347,347
8.2,1.59309,0,0,0,0.2,347,347
8.25,1.60309,0,0,0,0.2,347,347
8.3,1.61309,0,0,0,0.2,347,347
8.35,1.62309,0,0,0,0.2,347,347
8.4,1.63309,0,0,0,0.2,347,347
8.45,1.64309,0,0,0,0.2,347,347
8.5,1.65309,0,0,0,0.2,347,347
8.55,1.66309,0,0,0,0.2,347,347
8.6,1.67309,0,0,0,0.2,347,347
8.65,1.68309,0,0,0,0.2,347,347
8.7,1.69309,0,0,0,0.2,347,347
8.75,1.70309,0,0,0,0.2,347,347
8.8,1.71309,0,0,0,0.2,347,347
8.85,1.72309,0,0,0,0.2,347,347
8.9,1.73309,0,0,0,0.2,347,347
8.95,1.74309,0,0,0,0.2,347,347
9,1.75309,0,0,0,0.2,347,347
9.05,1.76309,0,0,0,0.2,347,347
9.1,1.77309,0,0,0,0.2,347,347
9.15,1.78309,0,0,0,0.2,347,347
9.2,1.79309,0,0,0,0.2,347,347
9.25,1.80309,0,0,0,0.2,347,347
9.3,1.81309,0,0,0,0.2,347,347
9.35,1.82309,0,0,0,0.2,347,347
9.4,1.83309,0,0,0,0.2,347,347
9.45,1.84309,0,0,0,0.2,347,347
9.5,1.85309,0,0,0,0.2,347,347
9.55,1.86309,0,0,0,0.2,347,347
9.6,1.87309,0,0,0,0.2,347,347
9.65,1.88309,0,0,0,0.2,347,347
9.7,1.89309,0,0,0,0.2,347,347
9.75,1.90309,0,0,0,0.2,347,347
9.8,1.91309,0,0,0,0.2,347,347
9.85,1.92309,0,0,0,0.2,347,347
9.9,1.93309,0,0,0,0.2,347,347
9.95,1.94309,0,0,0,0.2,347,347
10,1.95309,0,0,0,0.2,347,347
10.05,1.96309,0,0,0,0.2,347,347
10.1,1.97309,0,0,0,0.2,347,347
10.15,1.98309,0,0,0,0.2,347,347
10.2,1.99309,0,0,0,0.2,347,347
10.25,2.00309,0,0,0,0.2,347,347
10.3,2.01309,0,0,0,0.2,347,347
10.35,2.02309,0,0,0,0.2,347,347
10.4,2.03309,0,0,0,0.2,347,347
10.45,2.04309,0,0,0,0.2,347,347
10.5,2.05309,0,0,0,0.2,347,347
10.55,2.06309,0,0,0,0.2,347,347
10.6,2.07309,0,0,0,0.2,347,347
10.65,2.08309,0,0,0,0.2,347,347
10.7,2.09309,0,0,0,0.2,347,347
10.75,2.10309,0,0,0,0.2,347,347
10.8,2.11309,0,0,0,0.2,347,347
10.85,2.12309,0,0,0,0.2,347,347
10.9,2.13309,0,0,0,0.2,347,347
10.95,2.14309,0,0,0,0.2,347,347
11,2.15309,0,0,0,0.2,347,347
11.05,2.16309,0,0,0,0.2,347,347
11.1,2.17309,0,0,0,0.2,347,347
11.15,2.18309,0,0,0,0.2,347,347
11.2,2.19309,0,0,0,0.2,347,347
11.25,2.20309,0,0,0,0.2,347,347
11.3,2.21309,0,0,0,0.2,347,347
11.35,2.22309,0,0,0,0.2,347,347
11.4,2.23309,0,0,0,0.2,347,347
11.45,2.24309,0,0,0,0.2,347,347
11.5,2.25309,0,0,0,0.2,347,347
11.55,2.26309,0,0,0,0.2,347,347
11.6,2.27309,0,0,0,0.2,347,347
11.65,2.28309,0,0,0,0.2,347,347
11.7,2.29309,0,0,0,0.2,347,347
11.75,2.30309,0,0,0,0.2,347,347
11.8,2.31309,0,0,0,0.2,347,347
11.85,2.32309,0,0,0,0.2,347,347
11.9,2.33309,0,0,0,0.2,347,347
11.95,2.34309,0,0,0,0.2,347,347
12,2.35309,0,0,0,0.2,347,347
12.05,2.36309,0,0,0,0.2,347,347
12.1,2.37309,0,0,0,0.2,347,347
12.15,2.38309,0,0,0,0.2,347,347
12.2,2.39309,0,0,0,0.2,347,347
12.25,2.40309,0,0,0,0.2,347,347
12.3,2.41309,0,0,0,0.2,347,347
12.35,2.42309,0,0,0,0.2,347,347
12.4,2.43309,0,0,0,0.2,347,347
12.45,2.44309,0,0,0,0.2,347,347
12.5,2.45309,0,0,0,0.2,347,347
12.55,2.46309,0,0,0,0.2,347,347
12.6,2.47309,0,0,0,0.2,347,347
12.65,2.48309,0,0,0,0.2,347,347
12.7,2.49309,0,0,0,0.2,347,347
12.75,2.50309,0,0,0,0.2,347,347
12.8,2.51309,0,0,0,0.2,347,347
12.85,2.52309,0,0,0,0.2,347,347
12.9,2.53309,0,0,0,0.2,347,347
12.95,2.54309,0,0,0,0.2,347,347
13,2.55309,0,0,0,0.2,347,347
13.05,2.56309,0,0,0,0.2,347,347
13.1,2.57309,0,0,0,0.2,347,347
13.15,2.58309,0,0,0,0.2,347,347
13.2,2.59309,0,0,0,0.2,347,347
13.25,2.60309,0,0,0,0.2,347,347
13.3,2.61309,0,0,0,0.2,347,347
13.35,2.62309,0,0,0,0.2,347,347
13.4,2.63309,0,0,0,0.2,347,347
13.45,2.64309,0,0,0,0.2,347,347
13.5,2.65309,0,0,0,0.2,347,347
13.55,2.66309,0,0,0,0.2,347,347
13.6,2.67309,0,0,0,0.2,347,347
13.65,2.68309,0,0,0,0.2,347,347
13.7,2.69309,0,0,0,0.2,347,347
13.75,2.70309,0,0,0,0.2,347,347
13.8,2.71309,0,0,0,0.2,347,347
13.85,2.72309,0,0,0,0.2,347,347
13.9,2.73309,0,0,0,0.2,347,347
13.95,2.74309,0,0,0,0.2,347,347
14,2.75309,0,0,0,0.2,347,347
14.05,2.76309,0,0,0,0.2,347,347
14.1,2.77309,0,0,0,0.2,347,347
14.15,2.78309,0,0,0,0.2,347,347
14.2,2.79309,0,0,0,0.2,347,347
14.25,2.80309,0,0,0,0.2,347,347
14.3,2.81309,0,0,0,0.2,347,347
14.35,2.82309,0,0,0,0.2,347,347
14.4,2.83309,0,0,0,0.2,347,347
14.45,2.84309,0,0,0,0.2,347,347
14.5,2.85309,0,0,0,0.2,347,347
14.55,2.86309,0,0,0,0.2,347,347
14.6,2.87309,0,0,0,0.2,347,347
14.65,2.88309,0,0,0,0.2,347,347
14.7,2.89309,0,0,0,0.2,347,347
14.75,2.90309,0,0,0,0.2,347,347
14.8,2.91309,0,0,0,0.2,347,347
14.85,2.92309,0,0,0,0.2,347,347
14.9,2.93309,0,0,0,0.2,347,347
14.95,2.94309,0,0,0,0.2,347,347
15,2.95309,0,0,0,0.2,347,347
15.05,2.96309,0,0,0,0.2,347,347
15.1,2.97309,0,0,0,0.2,347,347
15.15,2.98309,0,0,0,0.2,347,347
15.2,2.99309,0,0,0,0.2,347,347
15.25,3.00309,0,0,0,0.2,347,347
15.3,3.01309,0,0,0,0.2,347,347
15.35,3.02309,0,0,0,0.2,347,347
15.4,3.03309,0,0,0,0.2,347,347
15.45,3.04309,0,0,0,0.2,347,347
15.5,3.05309,0,0,0,0.2,347,347
15.55,3.06309,0,0,0,0.2,347,347
15.6,3.07309,0,0,0,0.2,347,347
15.65,3.08309,0,0,0,0.2,347,347
15.7,3.09309,0,0,0,0.2,347,347
15.75,3.10309,0,0,0,0.2,347,347
15.8,3.11309,0,0,0,0.2,347,347
15.85,3.12309,0,0,0,0.2,347,347
15.9,3.13309,0,0,0,0.2,347,347
15.95,3.14309,0,0,0,0.2,347,347
16,3.15309,0,0,0,0.2,347,347
16.05,3.16309,0,0,0,0.2,347,347
16.1,3.17309,0,0,0,0.2,347,347
16.15,3.18309,0,0,0,0.2,347,347
16.2,3.19309,0,0,0,0.2,347,347
16.25,3.20309,0,0,0,0.2,347,347
16.3,3.21309,0,0,0,0.2,347,347
16.35,3.22309,0,0,0,0.2,347,347
16.4,3.23309,0,0,0,0.2,347,347
16.45,3.24309,0,0,0,0.2,347,347
16.5,3.25309,0,0,0,0.2,347,347
16.55,3.26309,0,0,0,0.2,347,347
16.6,3.27309,0,0,0,0.2,347,347
16.65,3.28309,0,0,0,0.2,347,347
16.7,3.29309,0,0,0,0.2,347,347
16.75,3.30309,0,0,0,0.2,347,347
16.8,3.31309,0,0,0,0.2,347,347
16.85,3.32309,0,0,0,0.2,347,347
16.9,3.33309,0,0,0,0.2,347,347
16.95,3.34309,0,0,0,0.2,347,347
17,3.35309,0,0,0,0.2,347,347
17.05,3.36309,0,0,0,0.2,347,347
17.1,3.37309,0,0,0,0.2,347,347
17.15,3.38309,0,0,0,0.2,347,347
17.2,3.39309,0,0,0,0.2,347,347
17.25,3.40309,0,0,0,0.2,347,347
17.3,3.41309,0,0,0,0.2,347,347
17.35,3.42309,0,0,0,0.2,347,347
17.4,3.43309,0,0,0,0.2,347,347
17.45,3.44309,0,0,0,0.2,347,347
17.5,3.45309,0,0,0,0.2,347,347
17.55,3.46309,0,0,0,0.2,347,347
17.6,3.47309,0,0,0,0.2,347,347
17.65,3.48309,0,0,0,0.2,347,347
17.7,3.49309,0,0,0,0.2,347,347
17.75,3.50309,0,0,0,0.2,347,347
17.8,3.51309,0,0,0,0.2,347,347
17.85,3.52309,0,0,0,0.2,347,347
17.9,3.53309,0,0,0,0.2,347,347
17.95,3.54309,0,0,0,0.2,347,347
18,3.55309,0,0,0,0.2,347,347
18.05,3.56309,0,0,0,0.2,347,347
18.1,3.57309,0,0,0,0.2,347,347
18.15,3.58309,0,0,0,0.2,347,347
18.2,3.59309,0,0,0,0.2,347,347
18.25,3.60309,0,0,0,0.2,347,347
18.3,3.61309,0,0,0,0.2,347,347
18.35,3.62309,0,0,0,0.2,347,347
18.4,3.63309,0,0,0,0.2,347,347
18.45,3.64309,0,0,0,0.2,347,347
18.5,3.65309,0,0,0,0.2,347,347
18.55,3.66309,0,0,0,0.2,347,347
18.6,3.67309,0,0,0,0.2,347,347
18.65,3.68309,0,0,0,0.2,347,347
18.7,3.69309,0,0,0,0.2,347,347
18.75,3.70309,0,0,0,0.2,347,347
18.8,3.71309,0,0,0,0.2,347,347
18.85,3.72309,0,0,0,0.2,347,347
18.9,3.73309,0,0,0,0.2,347,347
18.95,3.74309,0,0,0,0.2,347,347
19,3.75309,0,0,0,0.2,347,347
19.05,3.76309,0,0,0,0.2,347,347
19.1,3.77309,0,0,0,0.2,347,347
19.15,3.78309,0,0,0,0.2,347,347
19.2,3.79309,0,0,0,0.2,347,347
19.25,3.80309,0,0,0,0.2,347,347
19.3,3.81309,0,0,0,0.2,347,347
19.35,3.82309,0,0,0,0.2,347,347
19.4,3.83309,0,0,0,0.2,347,347
19.45,3.84309,0,0,0,0.2,347,347
19.5,3.85309,0,0,0,0.2,347,347
19.55,3.86309,0,0,0,0.2,347,347
19.6,3.87309,0,0,0,0.2,347,347
19.65,3.88309,0,0,0,0.2,347,347
19.7,3.89309,0,0,0,0.2,347,347
19.75,3.90309,0,0,0,0.2,347,347
19.8,3.91309,0,0,0,0.2,347,347
19.85,3.92309,0,0,0,0.2,347,347
19.9,3.93309,0,0,0,0.2,347,347
19.95,3.94309,0,0,0,0.2,347,347
20,3.95309,0,0,0,0.2,347,347
20.05,3.96309,0,0,0,0.2,347,347
20.1,3.97309,0,0,0,0.2,347,347
20.15,3.98309,0,0,0,0.2,347,347
20.2,3.99309,0,0,0,0.2,347,347
20.25,4.00309,0,0,0,0.2,347,347
20.3,4.01309,0,0,0,0.2,347,347
20.35,4.02309,0,0,0,0.2,347,347
20.4,4.03309,0,0,0,0.2,347,347
20.45,4.04309,0,0,0,0.2,347,347
20.5,4.05309,0,0,0,0.2,347,347
20.55,4.06309,0,0,0,0.2,347,347
20.6,4.07309,0,0,0,0.2,347,347
20.65,4.08309,0,0,0,0.2,347,347
20.7,4.09309,0,0,0,0.2,347,347
20.75,4.10309,0,0,0,0.2,347,347
20.8,4.11309,0,0,0,0.2,347,347
20.85,4.12309,0,0,0,0.2,347,347
20.9,4.13309,0,0,0,0.2,347,347
20.95,4.14309,0,0,0,0.2,347,347
21,4.15309,0,0,0,0.2,347,347
21.05,4.16309,0,0,0,0.2,347,347
21.1,4.17309,0,0,0,0.2,347,347
21.15,4.18309,0,0,0,0.2,347,347
21.2,4.19309,0,0,0,0.2,347,347
21.25,4.20309,0,0,0,0.200435,348,348
21.3,4.21,5.79798e-07,0.000173939,0.00695757,0.2,345,349
21.35,4.22,4.63838e-06,0.000695757,0.0139151,0.2,343,351
21.4,4.23,1.56545e-05,0.00156545,0.0208727,0.2,341,353
21.45,4.24,3.7107e-05,0.00278303,0.0278303,0.2,339,355
21.5,4.25,7.24746e-05,0.00434848,0.0347879,0.2,337,357
21.55,4.26,0.000125236,0.00626182,0.0417454,0.2,335,359
21.6,4.27,0.00019887,0.00852303,0.048703,0.2,333,361
21.65,4.28,0.000296854,0.0111321,0.0556606,0.2,331,363
21.7,4.29,0.000422667,0.0140891,0.0626182,0.2,329,365
21.75,4.3,0.000579785,0.0173939,0.0695757,0.2,327,367
21.8,4.31,0.000771687,0.0210467,0.0765333,0.2,325,369
21.85,4.31999,0.00100185,0.0250473,0.0834909,0.2,323,371
21.9,4.32999,0.00127374,0.0293958,0.0904485,0.2,321,373
21.95,4.33998,0.00159083,0.0340921,0.097406,0.2,319,375
22,4.34998,0.0019566,0.0391364,0.104364,0.2,317,377
22.05,4.35997,0.00237452,0.0445285,0.111321,0.2,315,379
22.1,4.36996,0.00284803,0.0502685,0.118279,0.2,313,381
22.15,4.37994,0.00338061,0.0563564,0.125236,0.2,311,383
22.2,4.38993,0.00397571,0.0627921,0.132194,0.2,309,385
22.25,4.3999,0.00463678,0.0695757,0.139151,0.2,307,387
22.3,4.40988,0.00536725,0.0767073,0.146109,0.2,305,389
22.35,4.41984,0.00617056,0.0841867,0.153067,0.2,303,391
22.4,4.42981,0.00705014,0.0920139,0.160024,0.2,301,393
22.45,4.43976,0.00800938,0.100189,0.166982,0.2,299,395
22.5,4.4497,0.0090517,0.108712,0.173939,0.2,297,397
22.55,4.45964,0.0101805,0.117583,0.180897,0.2,295,399
22.6,4.46957,0.0113991,0.126802,0.187855,0.2,293,401
22.65,4.47948,0.0127108,0.136368,0.194812,0.2,291,403
22.7,4.48938,0.0141191,0.146283,0.20177,0.2,289,405
22.75,4.49927,0.0156272,0.156545,0.208727,0.2,287,407
22.8,4.50913,0.0172383,0.167156,0.215685,0.2,285,409
22.85,4.51899,0.0189558,0.178114,0.222642,0.2,283,411
22.9,4.52882,0.0207829,0.18942,0.2296,0.2,281,413
22.95,4.53863,0.0227227,0.201074,0.236558,0.2,279,415
23,4.54841,0.0247783,0.213076,0.243515,0.2,277,417
23.05,4.55817,0.026953,0.225425,0.250473,0.2,275,419
23.1,4.56791,0.0292498,0.238123,0.25743,0.2,273,421
23.15,4.57761,0.0316716,0.251168,0.264388,0.2,272,423
23.2,4.58728,0.0342215,0.264562,0.271345,0.2,270,425
23.25,4.59691,0.0369023,0.278303,0.278303,0.2,268,427
23.3,4.60651,0.0397169,0.292392,0.285261,0.2,266,429
23.35,4.61606,0.0426681,0.306829,0.292218,0.2,264,431
23.4,4.62557,0.0457585,0.321614,0.299176,0.2,262,433
23.45,4.63504,0.0489909,0.336747,0.306133,0.2,260,435
23.5,4.64445,0.0523677,0.352227,0.313091,0.2,258,437
23.55,4.65381,0.0558915,0.368056,0.320048,0.2,256,439
23.6,4.66311,0.0595645,0.384232,0.327006,0.2,254,441
23.65,4.67235,0.0633892,0.400756,0.333964,0.2,252,443
23.7,4.68152,0.0673675,0.417628,0.340921,0.2,250,445
23.75,4.69063,0.0715017,0.434848,0.347879,0.2,248,447
23.8,4.69966,0.0757936,0.452416,0.354836,0.2,246,449
23.85,4.70861,0.0802451,0.470332,0.361794,0.2,244,451
23.9,4.71749,0.0848578,0.488596,0.368751,0.2,242,453
23.95,4.72627,0.0896333,0.507207,0.375709,0.2,240,455
24,4.73497,0.094573,0.526167,0.382667,0.2,238,457
24.05,4.74357,0.0996782,0.545474,0.389624,0.2,236,459
24.1,4.75206,0.10495,0.565129,0.396582,0.2,234,461
24.15,4.76045,0.110389,0.585132,0.403539,0.2,232,463
24.2,4.76873,0.115996,0.605483,0.410497,0.2,230,465
24.25,4.7769,0.121772,0.626182,0.417454,0.2,228,467
24.3,4.78494,0.127717,0.647228,0.424412,0.2,226,469
24.35,4.79285,0.133832,0.668623,0.43137,0.2,224,471
24.4,4.80063,0.140115,0.690365,0.438327,0.2,222,473
24.45,4.80827,0.146568,0.712456,0.445285,0.2,220,475
24.5,4.81576,0.153189,0.734894,0.452242,0.2,218,477
24.55,4.8231,0.159978,0.75768,0.4592,0.2,216,479
24.6,4.83029,0.166934,0.780814,0.466158,0.2,214,481
24.65,4.83731,0.174055,0.804071,0.461933,0.2,215,480
24.7,4.84416,0.181337,0.826994,0.454975,0.2,217,478
24.75,4.85085,0.188773,0.849569,0.448018,0.2,219,476
24.8,4.85737,0.196357,0.871795,0.44106,0.2,221,474
24.85,4.86372,0.204083,0.893675,0.434103,0.2,223,472
24.9,4.8699,0.211944,0.915206,0.427145,0.2,225,470
24.95,4.87591,0.219936,0.936389,0.420187,0.2,227,468
25,4.88176,0.228053,0.957224,0.41323,0.2,229,466
25.05,4.88743,0.236288,0.977712,0.406272,0.2,231,464
25.1,4.89293,0.244637,0.997852,0.399315,0.2,233,462
25.15,4.89827,0.253095,1.01764,0.392357,0.2,235,460
25.2,4.90344,0.261655,1.03709,0.3854,0.2,237,458
25.25,4.90845,0.270313,1.05618,0.378442,0.2,239,456
25.3,4.91329,0.279064,1.07493,0.371484,0.2,241,454
25.35,4.91796,0.287904,1.09333,0.364527,0.2,243,452
25.4,4.92248,0.296828,1.11138,0.357569,0.2,245,450
25.45,4.92683,0.30583,1.12909,0.350612,0.2,247,448
25.5,4.93103,0.314908,1.14645,0.343654,0.2,249,446
25.55,4.93507,0.324057,1.16345,0.336697,0.2,251,444
25.6,4.93895,0.333272,1.18012,0.329739,0.2,253,442
25.65,4.94268,0.34255,1.19643,0.322781,0.2,255,440
25.7,4.94626,0.351887,1.21239,0.315824,0.2,257,438
25.75,4.9497,0.361279,1.22801,0.308866,0.2,259,436
25.8,4.95299,0.370723,1.24328,0.301909,0.2,261,434
25.85,4.95613,0.380216,1.2582,0.294951,0.2,263,432
25.9,4.95914,0.389754,1.27277,0.287993,0.2,265,430
25.95,4.962,0.399334,1.287,0.281036,0.2,267,428
26,4.96474,0.408954,1.30088,0.274078,0.2,269,426
26.05,4.96734,0.41861,1.31441,0.267121,0.2,271,424
26.1,4.96981,0.4283,1.32759,0.260163,0.2,273,422
26.15,4.97215,0.438021,1.34042,0.253206,0.2,275,420
26.2,4.97437,0.447772,1.35291,0.246248,0.2,277,418
26.25,4.97648,0.457549,1.36505,0.23929,0.2,279,416
26.3,4.97846,0.46735,1.37684,0.232333,0.2,281,414
26.35,4.98033,0.477174,1.38828,0.225375,0.2,283,412
26.4,4.98209,0.487018,1.39938,0.218418,0.2,285,410
26.45,4.98374,0.49688,1.41012,0.21146,0.2,287,408
26.5,4.98529,0.50676,1.42052,0.204503,0.2,289,406
26.55,4.98674,0.516655,1.43057,0.197545,0.2,291,404
26.6,4.98809,0.526564,1.44028,0.190587,0.2,293,402
26.65,4.98934,0.536485,1.44963,0.18363,0.2,295,400
26.7,4.9905,0.546417,1.45864,0.176672,0.2,297,398
26.75,4.99158,0.556359,1.4673,0.169715,0.2,299,396
26.8,4.99257,0.56631,1.47561,0.162757,0.2,301,394
26.85,4.99348,0.576269,1.48358,0.1558,0.2,303,392
26.9,4.99431,0.586234,1.49119,0.148842,0.2,305,390
26.95,4.99507,0.596205,1.49846,0.141884,0.2,307,388
27,4.99576,0.606182,1.50538,0.134927,0.2,309,386
27.05,4.99638,0.616163,1.51195,0.127969,0.2,311,384
27.1,4.99693,0.626147,1.51818,0.121012,0.2,313,382
27.15,4.99743,0.636135,1.52405,0.114054,0.2,315,380
27.2,4.99787,0.646125,1.52958,0.107097,0.2,317,378
27.25,4.99825,0.656118,1.53476,0.100139,0.2,319,376
27.3,4.99859,0.666112,1.5396,0.0931814,0.2,321,374
27.35,4.99888,0.676108,1.54408,0.0862238,0.2,323,372
27.4,4.99912,0.686105,1.54822,0.0792662,0.2,325,370
27.45,4.99933,0.696103,1.55201,0.0723087,0.2,327,368
27.5,4.9995,0.706102,1.55545,0.0653511,0.2,329,366
